"temperature","cum.catch","cum"
-1,0,0
-0.9,0,0
-0.8,0,0
-0.7,0,0.00681214258524774
-0.6,0,0.00681214258524774
-0.5,0,0.0174904435801335
-0.4,0,0.0648508840981988
-0.3,0,0.0703933289031595
-0.2,0,0.122968803394078
-0.1,0.0633691789009368,0.154819773433838
0,0.134387045436571,0.286137909703342
0.1,0.19029247906358,0.400820151797648
0.2,0.388851881653574,0.520842257702756
0.3,0.478297933423064,0.627408777046941
0.4,0.549315799958698,0.753407022279715
0.5,0.782946564707149,1.0210064952083
0.6,1.18100146759823,1.38559630657788
0.7,1.64920947422444,1.85898773676971
0.8,2.28892623242762,2.50321890546811
0.9,2.89486874122033,2.90207097475536
1,3.43851970634419,3.44552935902097
1.1,4.48630253646808,4.36997875175238
1.2,5.10318878928987,5.03751407171638
1.3,5.9228099273822,5.91478921570025
1.4,6.5936226676652,6.59060058253983
1.5,7.03715181469691,7.41355854306822
1.6,7.92603330074749,8.33245099610139
1.7,8.53273517648618,9.03740687529823
1.8,8.96442631397837,9.62820768042775
1.9,9.70155900740006,10.2589570892144
2,10.7687728632732,11.1437003338084
2.1,11.7266609934202,11.8456474342132
2.2,12.9193922100808,12.9695094020445
2.3,14.4292314487349,14.2891687291608
2.4,15.1629468602496,15.2697086177996
2.5,15.8615934887341,16.4026065165824
2.6,16.7087129138392,17.3980388565554
2.7,17.7928943506351,18.2877419048087
2.8,18.5955891109497,19.2064786595643
2.9,20.2401928284297,20.2014102720864
3,21.2424402702039,21.2316179630702
3.1,22.5298047257959,22.318239007631
3.2,23.6135629968568,23.1619626934765
3.3,24.0637466719758,24.2222643787768
3.4,24.8410345036879,25.0281774618201
3.5,25.9412403782722,26.2651316607556
3.6,26.74204740549,27.2399561060282
3.7,28.2271267960544,28.4053391180285
3.8,29.3084730790408,29.4248858080636
3.9,30.1286828187851,30.1875131682379
4,30.9402292098517,31.203531887713
4.1,31.5564967864429,32.0058270809071
4.2,32.7238807089765,33.0444314412908
4.3,33.2922014123879,33.8393364486916
4.4,33.8570920011571,34.5807847385285
4.5,34.8613787784394,35.7036236899405
4.6,35.5133851452325,36.3669976740892
4.7,36.8044466294972,37.3264758478779
4.8,37.4290071434853,38.1394524576762
4.9,38.5510149545594,39.0841391093391
5,40.169271431053,40.2604885933306
5.1,41.4034165263575,41.0635303029229
5.2,42.5944761534423,42.4573712272387
5.3,43.7317731620624,43.4639676977885
5.4,44.9293423199074,44.5197757573828
5.5,46.5535902998343,45.7873326264346
5.6,47.333877565658,46.6179712578047
5.7,48.3983069009828,47.904341326688
5.8,49.1506543117616,48.8292270788314
5.9,49.9709427520863,49.9117071525189
6,50.9345022649655,50.8943286887132
6.1,51.5337128718262,51.5497739076906
6.2,52.7836818619781,52.7730468458183
6.3,53.3080967456982,53.6705011492061
6.4,54.4926944615355,54.7320640775163
6.5,55.7068684868161,55.9263911641453
6.6,56.863554814796,56.9590344991071
6.7,57.8882029282267,58.4118457260549
6.8,58.6266444348314,59.2275760405099
6.9,59.5572546418781,60.3081726318867
7,60.7523131128173,61.5430281991401
7.1,61.7718020892493,63.0252894188702
7.2,62.876748590109,64.05026400682
7.3,64.2590511993429,65.2499152303985
7.4,65.9504104844148,66.3725520485672
7.5,66.9033403407504,67.6171324273084
7.6,68.7036479753461,69.1755221862591
7.7,70.0344352674209,70.7407159700847
7.8,70.9649961565047,71.9042900118038
7.9,72.3451253784716,73.1640367619291
8,73.49635476879,74.3090163161918
8.1,75.1041385381244,75.7007869072706
8.2,76.2503793970547,76.8955817915943
8.3,77.4866109441353,77.9630280945281
8.4,78.8032427856601,79.1543929729624
8.5,79.7069749545638,80.3357377224774
8.6,80.7278611894031,81.3420248405672
8.7,81.8351672150963,82.0756053998441
8.8,82.9294232297312,83.1579154702687
8.9,83.9721897813942,84.1337885170594
9,85.3685792112068,85.4594748440761
9.1,86.4618691850818,86.5250874201468
9.2,87.2824369261145,87.3345952118991
9.3,88.3119572642625,88.3744614189842
9.4,89.4636933646247,89.4720795862762
9.5,91.0045200732592,90.6486508875631
9.6,91.5226364743894,91.3716320379938
9.7,92.3058517087642,92.2193080063453
9.8,92.7598919982553,92.9159016390346
9.9,93.3837125831169,93.5186258346972
10,94.1333481349934,94.335357997291
10.1,94.6844837300387,94.8180006601833
10.2,95.1017427583066,95.3784473324075
10.3,95.4337684575799,95.8325071522479
10.4,95.8509640770383,96.2285131717774
10.5,96.2974840691526,96.6107638237018
10.6,96.9685004976547,97.0215423787036
10.7,97.0744777544433,97.2376130456111
10.8,97.3581259919453,97.5321818946349
10.9,97.633876813209,97.9096805548589
11,97.8785159260016,98.2090073398612
11.1,97.9986756198276,98.3786625026485
11.2,98.4129068774462,98.6085267137965
11.3,98.4519667040408,98.7258521045779
11.4,98.5667525012695,98.8118505584971
11.5,98.8318321483168,98.975735950305
11.6,98.9753738406115,99.0725842884365
11.7,99.0784990219936,99.149196996523
11.8,99.2864289633404,99.3434484633561
11.9,99.2864289633404,99.3611607473911
12,99.3778961709097,99.4329656724822
12.1,99.4668006057655,99.4956720309154
12.2,99.4668006057655,99.5139631687418
12.3,99.4668006057655,99.5307634816464
12.4,99.4668006057655,99.5756736907739
12.5,99.5463786615711,99.6631725483942
12.6,99.6192987923889,99.6980240201306
12.7,99.6753759582081,99.737837605303
12.8,99.6753759582081,99.7669464968861
12.9,99.7312813918351,99.7820402075776
13,99.7312813918351,99.799330923417
13.1,99.9102765346894,99.874748831626
13.2,99.9102765346894,99.8792902600161
13.3,99.9102765346894,99.8857528790551
13.4,99.9102765346894,99.8857528790551
13.5,99.9102765346894,99.9437452551997
13.6,99.9102765346894,99.9557645853108
13.7,99.9102765346894,99.9646738691736
13.8,99.9102765346894,99.9646738691736
13.9,100,99.9888979908694
14,100,99.9888979908694
14.1,100,99.9888979908694
14.2,100,99.9888979908694
14.3,100,100
14.4,100,100
14.5,100,100
14.6,100,100
14.7,100,100
14.8,100,100
14.9,100,100
15,100,100
15.1,100,100
15.2,100,100
15.3,100,100
15.4,100,100
15.5,100,100
15.6,100,100
15.7,100,100
15.8,100,100
15.9,100,100
16,100,100
16.1,100,100
16.2,100,100
16.3,100,100
16.4,100,100
16.5,100,100
16.6,100,100
16.7,100,100
16.8,100,100
16.9,100,100
17,100,100
17.1,100,100
17.2,100,100
17.3,100,100
17.4,100,100
17.5,100,100
17.6,100,100
17.7,100,100
17.8,100,100
17.9,100,100
18,100,100
18.1,100,100
18.2,100,100
18.3,100,100
18.4,100,100
18.5,100,100
18.6,100,100
18.7,100,100
18.8,100,100
18.9,100,100
19,100,100
19.1,100,100
19.2,100,100
19.3,100,100
19.4,100,100
19.5,100,100
19.6,100,100
19.7,100,100
19.8,100,100
19.9,100,100
20,100,100
20.1,100,100
20.2,100,100
20.3,100,100
20.4,100,100
20.5,100,100
20.6,100,100
20.7,100,100
20.8,100,100
20.9,100,100
21,100,100
21.1,100,100
21.2,100,100
21.3,100,100
21.4,100,100
21.5,100,100
21.6,100,100
21.7,100,100
21.8,100,100
21.9,100,100
22,100,100
22.1,100,100
22.2,100,100
22.3,100,100
22.4,100,100
22.5,100,100
22.6,100,100
22.7,100,100
22.8,100,100
22.9,100,100
23,100,100
23.1,100,100
23.2,100,100
23.3,100,100
23.4,100,100
23.5,100,100
23.6,100,100
23.7,100,100
23.8,100,100
23.9,100,100
24,100,100
24.1,100,100
24.2,100,100
24.3,100,100
24.4,100,100
24.5,100,100
24.6,100,100
24.7,100,100
24.8,100,100
24.9,100,100
25,100,100
