"temperature","cum.catch","cum"
-1,0,0
-0.9,0,0
-0.8,0,0
-0.7,0.0166759090734593,0.0088990847971885
-0.6,0.0166759090734593,0.0088990847971885
-0.5,0.0260010774273377,0.0138754530157763
-0.4,0.0802559093705651,0.066806192351191
-0.3,0.0999788405499269,0.0773313179225218
-0.2,0.155145415910382,0.129780387936799
-0.1,0.207681199855408,0.177240275050381
0,0.270809521243896,0.289863888573072
0.1,0.326192216385943,0.338567155814517
0.2,0.382876966508446,0.415971395380463
0.3,0.542797600450195,0.577164433909249
0.4,0.665005332504134,0.690792016752802
0.5,0.812671936713251,0.915366879802821
0.6,1.09666933859789,1.20009309788887
0.7,1.53582130432018,1.64239464770003
0.8,2.06205162733316,2.2228628287013
0.9,2.40749479902624,2.69244546371864
1,2.96857205454821,3.21313223735188
1.1,3.93546921462735,4.17583287457309
1.2,4.53873686950518,4.77612123283977
1.3,5.61330306883529,5.93638648519413
1.4,6.28511318867776,6.61033955198987
1.5,7.01125538962701,7.39187084109296
1.6,7.90370401772951,8.24951384973541
1.7,8.62008458619806,8.98575411972105
1.8,9.28612528619202,9.63663207999596
1.9,9.8318506362937,10.2285553494052
2,10.7847629978602,11.2486825266507
2.1,11.468014983018,12.0308643812291
2.2,12.6819005570387,13.2009270004754
2.3,14.0117350291562,14.3160034969096
2.4,15.0758961282608,15.3748511514787
2.5,16.0201449840067,16.6077972603663
2.6,17.1073944668508,17.7663634655499
2.7,17.9974505308103,18.7099392576152
2.8,19.0500199990544,19.6772546720514
2.9,19.8573890602095,20.5135819486634
3,20.8132670654456,21.4784071618644
3.1,22.1472436110316,22.5894962411359
3.2,23.1101413163695,23.5272868992056
3.3,23.9548163554674,24.4901484118473
3.4,24.4259063398835,25.1427659143665
3.5,25.5433398476481,26.2586559196743
3.6,26.1516372108116,27.0988706216372
3.7,27.2505922289162,28.2545127570629
3.8,28.1650474079551,29.19006559455
3.9,28.8617367624569,29.9574572640759
4,29.7627330803868,30.8760649871542
4.1,30.7999995978599,31.6903801015094
4.2,31.8170989994642,32.7732853945791
4.3,32.8216662700378,33.6609332802373
4.4,33.6515426598454,34.4494712818618
4.5,35.1042155945435,35.716609456965
4.6,36.109835454273,36.4063264442417
4.7,37.0446903474039,37.3379556595358
4.8,37.5154577769798,37.9937936810416
4.9,38.5307261906447,38.9418274399724
5,39.4506272084821,39.9773607297695
5.1,40.1297276228442,40.8142088455444
5.2,41.5936422166578,42.2639703436165
5.3,42.6925518811764,43.3070481429663
5.4,43.9586429608516,44.3954774741434
5.5,45.3457793823092,45.6750177671755
5.6,46.3011003217781,46.6331377498823
5.7,47.8694261174824,48.0560535218602
5.8,49.1459646383103,49.1190051954879
5.9,50.2213045680577,50.4272089691158
6,51.3334007598197,51.5449774333078
6.1,51.8715926012383,52.1954996335985
6.2,53.1001800696254,53.3976077200534
6.3,54.0220341699335,54.2895688033444
6.4,55.3225633841181,55.3888102004879
6.5,56.6878447451943,56.724835260262
6.6,57.5242272806316,57.631488009721
6.7,58.585852942757,58.9633031402443
6.8,59.5032166813244,59.937796551855
6.9,60.5922150670972,61.0386909827742
7,61.7255074827824,62.1424327803934
7.1,62.9565527578215,63.568015260597
7.2,64.016866454712,64.6235778291852
7.3,65.2022893472329,65.824213405919
7.4,66.3328115753408,66.8898907866598
7.5,67.7259949932896,68.2125525527877
7.6,69.2578749116824,69.6573973673775
7.7,70.6958424551265,71.1040246067171
7.8,71.6865030368568,72.2257128319129
7.9,73.0395227025022,73.3756480141884
8,74.200091231291,74.4698260169984
8.1,75.585573624914,75.779882444476
8.2,76.7271738572202,76.9547320686622
8.3,77.6857510409808,77.9872178017646
8.4,78.9245417516845,78.9935811628943
8.5,80.2365410661695,80.1963918363316
8.6,81.0727872374283,81.1202543218203
8.7,81.7911794922766,81.7984400291136
8.8,82.7959817791078,82.8024372784629
8.9,83.6856104258017,83.7657427267653
9,84.7741232437536,84.8885204155571
9.1,85.6726590404623,85.866290497809
9.2,86.4550089941197,86.6939406042907
9.3,87.7685313691915,87.8848460959551
9.4,88.516411170594,88.8691014661165
9.5,89.6055633818824,90.1296344774519
9.6,90.1558850225644,90.7661193276451
9.7,91.0200877013427,91.6800058911876
9.8,91.8337107972583,92.5167959464055
9.9,92.4002736298869,93.296613277822
10,93.3678058834391,94.1478995645191
10.1,93.868409492355,94.5603264105072
10.2,94.3432152187127,95.042357034487
10.3,94.9042227184017,95.4932594210839
10.4,95.2930455517585,95.8308946842969
10.5,95.8735835931691,96.3639486940544
10.6,96.3198953019781,96.8121560633197
10.7,96.7929107980286,97.1731619817648
10.8,97.1580083867375,97.4784561884001
10.9,97.6777186198846,97.9193400885771
11,98.0165361193846,98.2215090722367
11.1,98.2766869712942,98.4034670641839
11.2,98.5407459892542,98.6135427755036
11.3,98.6953516774561,98.8038877919745
11.4,98.8462280606437,98.9075119898754
11.5,98.9946508935065,99.0868583986117
11.6,99.046549657725,99.1767948379082
11.7,99.1387950692648,99.2692525659094
11.8,99.2887616148533,99.407264141793
11.9,99.2887616148533,99.4243080340872
12,99.3518685910782,99.4869191470131
12.1,99.4419805344566,99.5609214444428
12.2,99.4692299227918,99.5799161595531
12.3,99.5673220033437,99.6322629155181
12.4,99.5673220033437,99.6480463323144
12.5,99.5806360491479,99.6867609108161
12.6,99.6682412698744,99.7335113628897
12.7,99.7276970796304,99.7714763841919
12.8,99.7875454879314,99.8034144367503
12.9,99.7875454879314,99.823875212516
13,99.8023765650068,99.831789804275
13.1,99.8548323045883,99.89155544755
13.2,99.8696633816637,99.899470039309
13.3,99.8771532471104,99.9034669996808
13.4,99.8771532471104,99.9034669996808
13.5,99.900592904904,99.9159755532717
13.6,99.9330508943246,99.940095632706
13.7,99.9330508943246,99.964272666283
13.8,99.9330508943246,99.964272666283
13.9,99.9792364920944,99.9889195715373
14,99.9792364920944,99.9889195715373
14.1,99.9792364920944,99.9889195715373
14.2,99.9792364920944,99.9889195715373
14.3,100,100
14.4,100,100
14.5,100,100
14.6,100,100
14.7,100,100
14.8,100,100
14.9,100,100
15,100,100
15.1,100,100
15.2,100,100
15.3,100,100
15.4,100,100
15.5,100,100
15.6,100,100
15.7,100,100
15.8,100,100
15.9,100,100
16,100,100
16.1,100,100
16.2,100,100
16.3,100,100
16.4,100,100
16.5,100,100
16.6,100,100
16.7,100,100
16.8,100,100
16.9,100,100
17,100,100
17.1,100,100
17.2,100,100
17.3,100,100
17.4,100,100
17.5,100,100
17.6,100,100
17.7,100,100
17.8,100,100
17.9,100,100
18,100,100
18.1,100,100
18.2,100,100
18.3,100,100
18.4,100,100
18.5,100,100
18.6,100,100
18.7,100,100
18.8,100,100
18.9,100,100
19,100,100
19.1,100,100
19.2,100,100
19.3,100,100
19.4,100,100
19.5,100,100
19.6,100,100
19.7,100,100
19.8,100,100
19.9,100,100
20,100,100
20.1,100,100
20.2,100,100
20.3,100,100
20.4,100,100
20.5,100,100
20.6,100,100
20.7,100,100
20.8,100,100
20.9,100,100
21,100,100
21.1,100,100
21.2,100,100
21.3,100,100
21.4,100,100
21.5,100,100
21.6,100,100
21.7,100,100
21.8,100,100
21.9,100,100
22,100,100
22.1,100,100
22.2,100,100
22.3,100,100
22.4,100,100
22.5,100,100
22.6,100,100
22.7,100,100
22.8,100,100
22.9,100,100
23,100,100
23.1,100,100
23.2,100,100
23.3,100,100
23.4,100,100
23.5,100,100
23.6,100,100
23.7,100,100
23.8,100,100
23.9,100,100
24,100,100
24.1,100,100
24.2,100,100
24.3,100,100
24.4,100,100
24.5,100,100
24.6,100,100
24.7,100,100
24.8,100,100
24.9,100,100
25,100,100
