"temperature","cum.catch","cum"
-1,0,0
-0.9,0,0
-0.8,0,0
-0.7,0,0.00351686097762976
-0.6,0,0.00351686097762976
-0.5,0,0.0125901485089736
-0.4,0.108211233292934,0.0964916906245283
-0.3,0.108211233292934,0.105564978155872
-0.2,0.108211233292934,0.16298031692288
-0.1,0.117471202710319,0.2051976140203
0,0.303423107500599,0.319253720496961
0.1,0.324283168871592,0.386133362096682
0.2,0.542938535884347,0.514278226792818
0.3,0.670085193685722,0.66468687285233
0.4,0.830872788290742,0.768170341685619
0.5,1.08836033582088,0.968297528714455
0.6,1.42341763305861,1.27027738542847
0.7,1.70088816510539,1.70317554915314
0.8,2.21783731667315,2.3193155433149
0.9,2.71282188511613,2.73327629522349
1,3.22988938308707,3.23975066215783
1.1,3.94950534280656,4.09212742147543
1.2,4.38326367432218,4.79041328051345
1.3,5.19145832041198,5.70674759757702
1.4,5.76434318726758,6.3602329634941
1.5,6.80404881042527,7.18745961186907
1.6,7.40514056384223,8.17462812829705
1.7,8.01838423473419,8.85858375332762
1.8,8.96898154710023,9.5590806734454
1.9,9.51644391374359,10.161894108027
2,10.4547482478274,11.1215923834566
2.1,11.3939003148361,11.9353838052754
2.2,12.5368167004491,13.0516292365901
2.3,13.9853463472963,14.2719808622398
2.4,14.9106365003851,15.259528667148
2.5,16.0163978988958,16.4218544852593
2.6,16.9569185221025,17.5667940517379
2.7,17.9071207725447,18.5383510696721
2.8,19.1605254613256,19.4587998967408
2.9,20.0626991246741,20.3002457645761
3,20.9790385710249,21.276834991375
3.1,22.2322154696837,22.3517456749573
3.2,23.19288933312,23.2370769984651
3.3,24.4031476339097,24.26868313509
3.4,25.1415430546445,25.0695933503896
3.5,26.2948941144226,26.2293377035218
3.6,27.1039838417459,27.0545920450361
3.7,28.2965364215936,28.337007332466
3.8,29.4722687701653,29.342704796494
3.9,30.1609857548407,30.0903476076518
4,31.3411267053948,31.0430101111394
4.1,32.2473408999059,31.8361969668552
4.2,33.0664547328792,32.7724135421758
4.3,33.9517840709065,33.5090673863692
4.4,34.8074635917707,34.3241636564801
4.5,36.0998011767458,35.4209564186907
4.6,36.4386959532766,36.0739254995381
4.7,37.5025719498504,37.0383905911766
4.8,38.1976396716316,37.6768164892824
4.9,39.1623959315905,38.624150529795
5,40.1209586404314,39.7491150933516
5.1,40.904895490533,40.6174820085222
5.2,41.8497758053197,41.952885406874
5.3,42.8267940303779,42.9351712475432
5.4,43.9015463696673,44.0433529385381
5.5,44.9232375696827,45.2495377599349
5.6,45.5333711292658,46.0224806141751
5.7,46.9433555378311,47.4021111388241
5.8,47.8097234946644,48.3305748427968
5.9,48.7073079623816,49.4453618975115
6,49.872105741821,50.4786988954658
6.1,50.3744598645421,51.1818163404214
6.2,51.597742300925,52.3569700658715
6.3,52.545805053207,53.2513769521028
6.4,53.2010609417986,54.1701304895079
6.5,54.1875879362438,55.4931455589245
6.6,55.4797386420174,56.4418033247644
6.7,56.3827279975627,57.835914707314
6.8,57.2458931853142,58.8473182463336
6.9,58.0214132785366,59.9652445314992
7,59.0051056778181,60.9838521480679
7.1,60.4906071094222,62.4255314380691
7.2,61.3134227410443,63.5173113796121
7.3,62.6609384764904,64.6886554692684
7.4,63.9154827250984,65.7340041076261
7.5,64.8446440593387,67.0522962976129
7.6,66.5254510992059,68.6800040611079
7.7,67.8573800906456,69.9749004297318
7.8,68.8258253272762,71.0121576902656
7.9,70.6961968569138,72.3127954315746
8,71.8416392585833,73.4456923086033
8.1,72.9814973094192,74.7662319951374
8.2,73.7313124209086,75.8499194914443
8.3,74.2950762643916,76.8743085240807
8.4,75.5050090567277,77.8652566646488
8.5,76.7248531034437,79.1291473218262
8.6,77.6307725711818,80.0538126708054
8.7,78.5108291279549,80.8997780960986
8.8,79.4052633126253,81.9339208776621
8.9,80.2534514927656,82.958507768724
9,81.5590010307287,84.1328898924354
9.1,82.5698956710254,85.2265494419746
9.2,83.348966558426,86.0875134879561
9.3,84.8506891315167,87.4025647769544
9.4,86.1377687676294,88.556644365822
9.5,87.3501278622721,89.7006038535445
9.6,88.4988150730253,90.5518311150488
9.7,89.451652031876,91.4282763384138
9.8,90.3722797330764,92.2212328922347
9.9,91.4305322792997,93.0347417445569
10,92.4034664142135,93.9276097787123
10.1,92.9298736280456,94.4525960178551
10.2,93.226890933389,94.9375070433231
10.3,93.7736069975984,95.3845455635411
10.4,94.3407796553165,95.7553411594026
10.5,94.7709723155862,96.2364981007862
10.6,95.4364937829531,96.6993902866834
10.7,95.6248642651844,96.9905293647136
10.8,96.2539518831788,97.3318683017781
10.9,96.8700207713614,97.7692595397236
11,97.2115965392615,98.0506683441826
11.1,97.5402184548487,98.2388510328865
11.2,97.8741480882274,98.4661777060423
11.3,98.090138315685,98.6176558158323
11.4,98.2942813489029,98.7354777679801
11.5,98.5575074724619,98.9030246594004
11.6,98.7145874971068,98.9910500560053
11.7,98.7652177771345,99.105954745927
11.8,99.1070016534013,99.2856850570749
11.9,99.1270039378976,99.3087602259616
12,99.1457678070311,99.3673230251324
12.1,99.3148828067576,99.4863318902879
12.2,99.3148828067576,99.4999118908532
12.3,99.4330201268222,99.6168840409784
12.4,99.4449664568372,99.6214211598351
12.5,99.5274899532863,99.6726525956369
12.6,99.675574408488,99.7288938658202
12.7,99.7907845649677,99.7858192670143
12.8,99.7907845649677,99.8088079014725
12.9,99.7907845649677,99.8314269830186
13,99.7907845649677,99.8376226444856
13.1,99.848445934815,99.8774814711868
13.2,99.8868368110621,99.8920620133554
13.3,99.8868368110621,99.8951881120022
13.4,99.8868368110621,99.8951881120022
13.5,99.8868368110621,99.9309054518601
13.6,99.9093909817606,99.9568097875312
13.7,99.9598282619914,99.9759654558349
13.8,99.9598282619914,99.9759654558349
13.9,100,99.9912223547984
14,100,99.9912223547984
14.1,100,99.9912223547984
14.2,100,99.9912223547984
14.3,100,100
14.4,100,100
14.5,100,100
14.6,100,100
14.7,100,100
14.8,100,100
14.9,100,100
15,100,100
15.1,100,100
15.2,100,100
15.3,100,100
15.4,100,100
15.5,100,100
15.6,100,100
15.7,100,100
15.8,100,100
15.9,100,100
16,100,100
16.1,100,100
16.2,100,100
16.3,100,100
16.4,100,100
16.5,100,100
16.6,100,100
16.7,100,100
16.8,100,100
16.9,100,100
17,100,100
17.1,100,100
17.2,100,100
17.3,100,100
17.4,100,100
17.5,100,100
17.6,100,100
17.7,100,100
17.8,100,100
17.9,100,100
18,100,100
18.1,100,100
18.2,100,100
18.3,100,100
18.4,100,100
18.5,100,100
18.6,100,100
18.7,100,100
18.8,100,100
18.9,100,100
19,100,100
19.1,100,100
19.2,100,100
19.3,100,100
19.4,100,100
19.5,100,100
19.6,100,100
19.7,100,100
19.8,100,100
19.9,100,100
20,100,100
20.1,100,100
20.2,100,100
20.3,100,100
20.4,100,100
20.5,100,100
20.6,100,100
20.7,100,100
20.8,100,100
20.9,100,100
21,100,100
21.1,100,100
21.2,100,100
21.3,100,100
21.4,100,100
21.5,100,100
21.6,100,100
21.7,100,100
21.8,100,100
21.9,100,100
22,100,100
22.1,100,100
22.2,100,100
22.3,100,100
22.4,100,100
22.5,100,100
22.6,100,100
22.7,100,100
22.8,100,100
22.9,100,100
23,100,100
23.1,100,100
23.2,100,100
23.3,100,100
23.4,100,100
23.5,100,100
23.6,100,100
23.7,100,100
23.8,100,100
23.9,100,100
24,100,100
24.1,100,100
24.2,100,100
24.3,100,100
24.4,100,100
24.5,100,100
24.6,100,100
24.7,100,100
24.8,100,100
24.9,100,100
25,100,100
